Time(s),Kn,Chamber Pressure(Pa),Thrust(N),Propellant Mass(G1;kg),Propellant Mass(G2;kg),Propellant Mass(G3;kg),Volume Loading(%),Mass Flow(G1;kg/s),Mass Flow(G2;kg/s),Mass Flow(G3;kg/s),Mass Flux(G1;kg/(m^2*s)),Mass Flux(G2;kg/(m^2*s)),Mass Flux(G3;kg/(m^2*s)),Regression Depth(G1;m),Regression Depth(G2;m),Regression Depth(G3;m),Web(G1;m),Web(G2;m),Web(G3;m),Nozzle Exit Pressure(Pa),Change in Throat Diameter(m)
0,319.20174,407460058.07902,0,1.96403,1.93616,2.606,64.53213,0,0,0,0,0,0,0,0,0,0.01768,0.02767,0.03015,0,0
0.0001,319.28641,407667826.07301,286979.87616,1.96403,1.93616,2.606,64.37701,0.0,0.0,0.0,15835.08341,6050.99329,13375.47539,6e-05,6e-05,6e-05,0.01763,0.02761,0.03009,29128691.10114,0.0
0.0002,319.37042,407874037.9481,287125.04008,1.95822,1.93123,2.6011,64.2218,58.11046,107.39959,156.39653,15800.21603,14830.30915,48215.52104,0.00011,0.00011,0.00011,0.01757,0.02756,0.03004,29143425.35689,0.0
0.0003,319.45378,408078690.93095,287269.1066,1.9524,1.9263,2.5962,64.06652,58.16784,107.4475,156.47611,15765.43624,14802.74862,48069.4325,0.00017,0.00017,0.00017,0.01751,0.0275,0.02998,29158048.22664,0.0
0.0004,319.53648,408281782.26779,287412.0738,1.94658,1.92138,2.59129,63.91117,58.22503,107.495,156.55509,15730.74372,14775.21566,47923.86283,0.00023,0.00023,0.00023,0.01746,0.02744,0.02992,29172559.51362,0.0
0.0005,319.61853,408483309.22445,287553.93975,1.94075,1.91645,2.58638,63.75573,58.28203,107.5421,156.63348,15696.1381,14747.71031,47778.80941,0.00028,0.00028,0.00028,0.0174,0.02739,0.02987,29186959.02246,0.0
0.0006,319.69992,408683269.08648,287694.70253,1.93492,1.91152,2.58147,63.60022,58.33883,107.58879,156.71127,15661.61905,14720.23259,47634.26963,0.00034,0.00034,0.00034,0.01734,0.02733,0.02981,29201246.55923,0.0
0.0007,319.78065,408881659.15917,287834.36024,1.92908,1.9066,2.57656,63.44463,58.39545,107.63506,156.78845,15627.18622,14692.78251,47490.2409,0.0004,0.0004,0.0004,0.01728,0.02727,0.02975,29215421.93137,0.0
0.0008,319.86072,409078476.76765,287972.91102,1.92324,1.90168,2.57164,63.28897,58.45188,107.68092,156.86504,15592.83929,14665.36011,47346.72063,0.00045,0.00045,0.00045,0.01723,0.02722,0.0297,29229484.94777,0.0
0.0009,319.94014,409273719.25694,288110.35298,1.91738,1.89676,2.56672,63.13323,58.50812,107.72638,156.94102,15558.57791,14637.96541,47203.70627,0.00051,0.00051,0.00051,0.01717,0.02716,0.02964,29243435.4187,0.0
0.001,320.01889,409467383.99204,288246.68427,1.91153,1.89184,2.56179,62.97742,58.56416,107.77142,157.0164,15524.40176,14610.59842,47061.19529,0.00057,0.00057,0.00057,0.01711,0.0271,0.02958,29257273.15591,0.0
0.0011,320.09699,409659468.35795,288381.90306,1.90567,1.88692,2.55686,62.82153,58.62001,107.81604,157.09117,15490.31049,14583.25917,46919.18515,0.00063,0.00063,0.00063,0.01706,0.02704,0.02953,29270997.97255,0.0
0.0012,320.17442,409849969.75977,288516.0075,1.8998,1.882,2.55193,62.66558,58.67566,107.86025,157.16534,15456.30379,14555.94769,46777.67337,0.00068,0.00068,0.00068,0.017,0.02699,0.02947,29284609.68319,0.0
0.0013,320.25119,410038885.62277,288648.9958,1.89393,1.87708,2.547,62.50954,58.73113,107.90405,157.2389,15422.38132,14528.664,46636.65745,0.00074,0.00074,0.00074,0.01694,0.02693,0.02941,29298108.10388,0.0
0.0014,320.3273,410226213.39244,288780.86616,1.88805,1.87216,2.54206,62.35344,58.78639,107.94744,157.31185,15388.54277,14501.40811,46496.13491,0.0008,0.0008,0.0008,0.01689,0.02687,0.02936,29311493.05209,0.0
0.0015,320.40275,410411950.53454,288911.61678,1.88216,1.86725,2.53712,62.19727,58.84146,107.9904,157.38419,15354.78779,14474.18006,46356.10332,0.00085,0.00085,0.00085,0.01683,0.02682,0.0293,29324764.34673,0.0
0.0016,320.47753,410596094.5352,289041.2459,1.87627,1.86234,2.53218,62.04102,58.89634,108.03295,157.45593,15321.11609,14446.97985,46216.56024,0.00091,0.00091,0.00091,0.01677,0.02676,0.02924,29337921.8082,0.0
0.0017,320.55165,410778642.90094,289169.75177,1.87038,1.85742,2.52724,61.88471,58.95102,108.07509,157.52705,15287.52733,14419.80753,46077.50324,0.00097,0.00097,0.00097,0.01672,0.0267,0.02918,29350965.25833,0.0
0.0018,320.62511,410959593.15878,289297.13264,1.86448,1.85251,2.52229,61.72833,59.0055,108.11681,157.59756,15254.0212,14392.66311,45938.92994,0.00102,0.00102,0.00102,0.01666,0.02665,0.02913,29363894.52041,0.0
0.0019,320.6979,411138942.85625,289423.38679,1.85857,1.8476,2.51734,61.57187,59.05978,108.1581,157.66746,15220.59738,14365.5466,45800.83793,0.00108,0.00108,0.00108,0.0166,0.02659,0.02907,29376709.41921,0.0
0.002,320.77002,411316689.5615,289548.5125,1.85266,1.84269,2.51238,61.41535,59.11387,108.19898,157.73675,15187.25556,14338.45804,45663.22487,0.00114,0.00114,0.00114,0.01654,0.02653,0.02901,29389409.78098,0.0
0.0021,320.84148,411492830.86333,289672.50808,1.84674,1.83779,2.50743,61.25877,59.16776,108.23944,157.80542,15153.99544,14311.39745,45526.08838,0.00119,0.00119,0.00119,0.01649,0.02648,0.02896,29401995.43342,0.0
0.0022,320.91227,411667364.37127,289795.37185,1.84082,1.83288,2.50247,61.10211,59.22145,108.27949,157.87348,15120.81669,14284.36485,45389.42615,0.00125,0.00125,0.00125,0.01643,0.02642,0.0289,29414466.20574,0.0
0.0023,320.98239,411840287.71561,289917.10213,1.83489,1.82798,2.49751,60.94539,59.27494,108.31911,157.94092,15087.71902,14257.36025,45253.23585,0.00131,0.00131,0.00131,0.01637,0.02636,0.02884,29426821.92861,0.0
0.0024,321.05185,412011598.54749,290037.69728,1.82896,1.82307,2.49254,60.7886,59.32822,108.35831,158.00774,15054.70211,14230.38369,45117.51517,0.00137,0.00137,0.00137,0.01632,0.0263,0.02879,29439062.4342,0.0
0.0025,321.12064,412181294.53896,290157.15565,1.82302,1.81817,2.48757,60.63175,59.38131,108.39708,158.07394,15021.76567,14203.43519,44982.26184,0.00142,0.00142,0.00142,0.01626,0.02625,0.02873,29451187.55617,0.0
0.0026,321.18876,412349373.38302,290275.47562,1.81708,1.81327,2.4826,60.47483,59.4342,108.43544,158.13953,14988.90939,14176.51476,44847.47357,0.00148,0.00148,0.00148,0.0162,0.02619,0.02867,29463197.12969,0.0
0.0027,321.25621,412515832.79368,290392.65558,1.81113,1.80837,2.47763,60.31785,59.48688,108.47337,158.20449,14956.13297,14149.62243,44713.14812,0.00154,0.00154,0.00154,0.01615,0.02613,0.02861,29475090.99142,0.0
0.0028,321.32299,412680670.50602,290508.69394,1.80518,1.80348,2.47265,60.16081,59.53936,108.51088,158.26884,14923.43611,14122.75822,44579.28323,0.00159,0.00159,0.00159,0.01609,0.02608,0.02856,29486868.97952,0.0
0.0029,321.3891,412843884.27626,290623.58912,1.79922,1.79858,2.46768,60.00371,59.59164,108.54797,158.33256,14890.81853,14095.92216,44445.8767,0.00165,0.00165,0.00165,0.01603,0.02602,0.0285,29498530.93367,0.0
0.003,321.45453,413005471.88181,290737.33955,1.79325,1.79369,2.46269,59.84654,59.64372,108.58463,158.39566,14858.27991,14069.11426,44312.92629,0.00171,0.00171,0.00171,0.01597,0.02596,0.02844,29510076.69507,0.0
0.0031,321.5193,413165431.12131,290849.94369,1.78728,1.78879,2.45771,59.68931,59.69559,108.62087,158.45813,14825.81997,14042.33454,44180.42983,0.00177,0.00177,0.00177,0.01592,0.0259,0.02839,29521506.10641,0.0
0.0032,321.5834,413323759.81471,290961.39999,1.78131,1.7839,2.45272,59.53202,59.74726,108.65668,158.51999,14793.43842,14015.58304,44048.38513,0.00182,0.00182,0.00182,0.01586,0.02585,0.02833,29532819.01194,0.0
0.0033,321.64682,413480455.80331,291071.70694,1.77533,1.77901,2.44774,59.37467,59.79872,108.69207,158.58121,14761.13497,13988.85976,43916.79003,0.00188,0.00188,0.00188,0.0158,0.02579,0.02827,29544015.2574,0.0
0.0034,321.70957,413635516.94981,291180.86304,1.76934,1.77413,2.44274,59.21726,59.84997,108.72702,158.64181,14728.90934,13962.16474,43785.64237,0.00194,0.00194,0.00194,0.01575,0.02573,0.02821,29555094.69009,0.0
0.0035,321.77164,413788941.13839,291288.86679,1.76335,1.76924,2.43775,59.05979,59.90102,108.76156,158.70179,14696.76123,13935.498,43654.94002,0.00199,0.00199,0.00199,0.01569,0.02568,0.02816,29566057.15882,0.0
0.0036,321.83304,413940726.27473,291395.71672,1.75736,1.76435,2.43275,58.90226,59.95187,108.79566,158.76113,14664.69036,13908.85954,43524.68085,0.00205,0.00205,0.00205,0.01563,0.02562,0.0281,29576902.51396,0.0
0.0037,321.89377,414090870.28609,291501.41138,1.75136,1.75947,2.42775,58.74468,60.00251,108.82934,158.81985,14632.69644,13882.24941,43394.86276,0.00211,0.00211,0.00211,0.01557,0.02556,0.02804,29587630.60739,0.0
0.0038,321.95382,414239371.12134,291605.94931,1.74535,1.75459,2.42275,58.58704,60.05293,108.86259,158.87794,14600.77921,13855.66761,43265.48366,0.00217,0.00217,0.00217,0.01552,0.0255,0.02799,29598241.29256,0.0
0.0039,322.0132,414386226.75103,291709.32909,1.73934,1.74971,2.41775,58.42934,60.10316,108.89541,158.9354,14568.93838,13829.11417,43136.54146,0.00222,0.00222,0.00222,0.01546,0.02545,0.02793,29608734.42447,0.0
0.004,322.0719,414531435.16743,291811.54931,1.73333,1.74483,2.41274,58.27159,60.15317,108.9278,158.99223,14537.17367,13802.58912,43008.0341,0.00228,0.00228,0.00228,0.0154,0.02539,0.02787,29619109.85966,0.0
0.0041,322.12992,414674994.3846,291912.60856,1.72731,1.73996,2.40773,58.11378,60.20297,108.95976,159.04842,14505.4848,13776.09246,42879.95953,0.00234,0.00234,0.00234,0.01535,0.02533,0.02781,29629367.45622,0.0
0.0042,322.18727,414816902.4384,292012.50547,1.72128,1.73509,2.40272,57.95592,60.25256,108.99129,159.10399,14473.87151,13749.62423,42752.31572,0.00239,0.00239,0.00239,0.01529,0.02528,0.02776,29639507.07382,0.0
0.0043,322.24394,414957157.3866,292111.23867,1.71525,1.73021,2.39771,57.798,60.30195,109.02239,159.15892,14442.33352,13723.18445,42625.10063,0.00245,0.00245,0.00245,0.01523,0.02522,0.0277,29649528.57368,0.0
0.0044,322.29993,415095757.30887,292208.8068,1.70922,1.72534,2.39269,57.64003,60.35112,109.05306,159.21321,14410.87056,13696.77313,42498.31225,0.00251,0.00251,0.00251,0.01517,0.02516,0.02764,29659431.81859,0.0
0.0045,322.35525,415232700.30685,292305.20853,1.70318,1.72047,2.38767,57.48201,60.40008,109.0833,159.26687,14379.48236,13670.3903,42371.9486,0.00257,0.00257,0.00257,0.01512,0.0251,0.02758,29669216.6729,0.0
0.0046,322.40988,415367984.50423,292400.44254,1.69713,1.71561,2.38265,57.32393,60.44883,109.1131,159.3199,14348.16865,13644.03598,42246.00768,0.00262,0.00262,0.00262,0.01506,0.02505,0.02753,29678883.00255,0.0
0.0047,322.46384,415501608.04674,292494.50753,1.69108,1.71074,2.37763,57.16581,60.49737,109.14247,159.37229,14316.92916,13617.71018,42120.48752,0.00268,0.00268,0.00268,0.015,0.02499,0.02747,29688430.67506,0.0
0.0048,322.51712,415633569.10225,292587.40219,1.68503,1.70588,2.37261,57.00763,60.5457,109.17141,159.42405,14285.76364,13591.41294,41995.38617,0.00274,0.00274,0.00274,0.01494,0.02493,0.02741,29697859.5595,0.0
0.0049,322.56971,415763865.86078,292679.12527,1.67897,1.70102,2.36758,56.8494,60.59381,109.19992,159.47516,14254.67182,13565.14426,41870.70168,0.0028,0.0028,0.0028,0.01489,0.02487,0.02736,29707169.52656,0.0
0.005,322.62163,415892496.53455,292769.6755,1.6729,1.69616,2.36255,56.69113,60.64171,109.22799,159.52564,14223.65344,13538.90418,41746.43212,0.00285,0.00285,0.00285,0.01483,0.02482,0.0273,29716360.44849,0.0
0.0051,322.67287,416019459.35808,292859.05164,1.66684,1.69131,2.35752,56.5328,60.6894,109.25563,159.57548,14192.70823,13512.69271,41622.57557,0.00291,0.00291,0.00291,0.01477,0.02476,0.02724,29725432.19914,0.0
0.0052,322.72342,416144752.58813,292947.25246,1.66076,1.68645,2.35248,56.37443,60.73687,109.28283,159.62468,14161.83594,13486.50988,41499.13012,0.00297,0.00297,0.00297,0.01472,0.0247,0.02718,29734384.65396,0.0
0.0053,322.7733,416268374.50384,293034.27674,1.65468,1.6816,2.34745,56.21601,60.78412,109.3096,159.67324,14131.03632,13460.35569,41376.09389,0.00302,0.00302,0.00302,0.01466,0.02465,0.02713,29743217.68999,0.0
0.0054,322.82249,416390323.40675,293120.1233,1.6486,1.67675,2.34241,56.05754,60.83117,109.33593,159.72116,14100.3091,13434.23019,41253.46498,0.00308,0.00308,0.00308,0.0146,0.02459,0.02707,29751931.18587,0.0
0.0055,322.871,416510597.6208,293204.79096,1.64251,1.6719,2.33737,55.89903,60.87799,109.36183,159.76843,14069.65404,13408.13337,41131.24153,0.00314,0.00314,0.00314,0.01454,0.02453,0.02701,29760525.02185,0.0
0.0056,322.91882,416629195.49242,293288.27855,1.63642,1.66705,2.33232,55.74047,60.9246,109.38729,159.81507,14039.07088,13382.06527,41009.42168,0.0032,0.0032,0.0032,0.01449,0.02447,0.02695,29768999.07976,0.0
0.0057,322.96597,416746115.39056,293370.58491,1.63032,1.66221,2.32728,55.58187,60.97099,109.41231,159.86106,14008.55937,13356.02591,40888.00359,0.00325,0.00325,0.00325,0.01443,0.02442,0.0269,29777353.24307,0.0
0.0058,323.01243,416861355.70673,293451.70893,1.62422,1.65737,2.32223,55.42322,61.01717,109.4369,159.90641,13978.11927,13330.0153,40766.98543,0.00331,0.00331,0.00331,0.01437,0.02436,0.02684,29785587.39685,0.0
0.0059,323.0582,416974914.85503,293531.64948,1.61811,1.65253,2.31718,55.26453,61.06313,109.46105,159.95111,13947.75031,13304.03347,40646.36536,0.00337,0.00337,0.00337,0.01431,0.0243,0.02678,29793701.42779,0.0
0.006,323.10329,417086791.2722,293610.40546,1.612,1.64769,2.31213,55.10579,61.10887,109.48476,159.99517,13917.45226,13278.08043,40526.14159,0.00343,0.00343,0.00343,0.01426,0.02424,0.02672,29801695.22418,0.0
0.0061,323.1477,417196983.41767,293687.97579,1.60589,1.64285,2.30708,54.94701,61.15439,109.50803,160.03859,13887.22488,13252.15621,40406.31232,0.00348,0.00348,0.00348,0.0142,0.02419,0.02667,29809568.67595,0.0
0.0062,323.19143,417305489.77359,293764.3594,1.59977,1.63802,2.30202,54.78819,61.19969,109.53087,160.08135,13857.06791,13226.26083,40286.87576,0.00354,0.00354,0.00354,0.01414,0.02413,0.02661,29817321.67465,0.0
0.0063,323.23446,417412308.84485,293839.55524,1.59364,1.63319,2.29697,54.62933,61.24477,109.55326,160.12348,13826.98112,13200.3943,40167.83014,0.0036,0.0036,0.0036,0.01408,0.02407,0.02655,29824954.11344,0.0
0.0064,323.27681,417517439.15917,293913.56227,1.58751,1.62836,2.29191,54.47043,61.28964,109.57522,160.16495,13796.96427,13174.55664,40049.1737,0.00366,0.00366,0.00366,0.01403,0.02401,0.0265,29832465.88714,0.0
0.0065,323.31848,417620879.26707,293986.37947,1.58138,1.62354,2.28685,54.31149,61.33428,109.59674,160.20578,13767.01711,13148.74789,39930.90467,0.00371,0.00371,0.00371,0.01397,0.02396,0.02644,29839856.89216,0.0
0.0066,323.35946,417722627.74195,294058.00584,1.57524,1.61871,2.28178,54.15251,61.3787,109.61782,160.24596,13737.13941,13122.96804,39813.02134,0.00377,0.00377,0.00377,0.01391,0.0239,0.02638,29847127.02658,0.0
0.0067,323.39975,417822683.18015,294128.44038,1.5691,1.61389,2.27672,53.99349,61.4229,109.63845,160.28548,13707.33093,13097.21713,39695.52195,0.00383,0.00383,0.00383,0.01385,0.02384,0.02632,29854276.19011,0.0
0.0068,323.43936,417921044.2009,294197.68213,1.56295,1.60907,2.27165,53.83443,61.46688,109.65865,160.32436,13677.59144,13071.49518,39578.40481,0.00389,0.00389,0.00389,0.0138,0.02378,0.02627,29861304.28408,0.0
0.0069,323.47828,418017709.44646,294265.73013,1.5568,1.60425,2.26658,53.67534,61.51064,109.67841,160.3626,13647.9207,13045.8022,39461.6682,0.00394,0.00394,0.00394,0.01374,0.02373,0.02621,29868211.21148,0.0
0.007,323.51651,418112677.58207,294332.58344,1.55065,1.59944,2.26151,53.51621,61.55418,109.69772,160.40018,13618.31848,13020.13821,39345.31042,0.004,0.004,0.004,0.01368,0.02367,0.02615,29874996.87694,0.0
0.0071,323.55405,418205947.29603,294398.24114,1.54449,1.59463,2.25644,53.35704,61.59749,109.71659,160.4371,13588.78455,12994.50324,39229.32979,0.00406,0.00406,0.00406,0.01362,0.02361,0.02609,29881661.18673,0.0
0.0072,323.59091,418297517.29973,294462.70232,1.53832,1.58982,2.25137,53.19784,61.64058,109.73503,160.47338,13559.31867,12968.8973,39113.72465,0.00412,0.00412,0.00412,0.01357,0.02355,0.02604,29888204.04879,0.0
0.0073,323.62708,418387386.32766,294525.96608,1.53216,1.58501,2.24629,53.0386,61.68345,109.75302,160.50901,13529.92063,12943.3204,38998.49331,0.00417,0.00417,0.00417,0.01351,0.0235,0.02598,29894625.37269,0.0
0.0074,323.66256,418475553.13747,294588.03157,1.52598,1.58021,2.24122,52.87933,61.72609,109.77056,160.54398,13500.59019,12917.77258,38883.63414,0.00423,0.00423,0.00423,0.01345,0.02344,0.02592,29900925.06966,0.0
0.0075,323.69735,418562016.50999,294648.8979,1.51981,1.5754,2.23614,52.72003,61.76851,109.78767,160.5783,13471.32712,12892.25385,38769.14549,0.00429,0.00429,0.00429,0.01339,0.02338,0.02586,29907103.05259,0.0
0.0076,323.73145,418646775.24925,294708.56426,1.51363,1.57061,2.23106,52.56069,61.8107,109.80433,160.61197,13442.13121,12866.76422,38655.02573,0.00435,0.00435,0.00435,0.01334,0.02332,0.02581,29913159.23602,0.0
0.0077,323.76486,418729828.18253,294767.0298,1.50744,1.56581,2.22597,52.40132,61.85267,109.82055,160.64498,13413.00222,12841.30372,38541.27323,0.0044,0.0044,0.0044,0.01328,0.02327,0.02575,29919093.53616,0.0
0.0078,323.79758,418811174.16038,294824.29372,1.50125,1.56101,2.22089,52.24192,61.89441,109.83633,160.67734,13383.93994,12815.87237,38427.88639,0.00446,0.00446,0.00446,0.01322,0.02321,0.02569,29924905.87089,0.0
0.0079,323.82961,418890812.05666,294880.35523,1.49506,1.55622,2.2158,52.08249,61.93593,109.85166,160.70904,13354.94415,12790.47018,38314.8636,0.00452,0.00452,0.00452,0.01316,0.02315,0.02563,29930596.15972,0.0
0.008,323.86095,418968740.76854,294935.21355,1.48886,1.55143,2.21072,51.92303,61.97722,109.86655,160.74009,13326.01462,12765.09718,38202.20328,0.00458,0.00458,0.00458,0.01311,0.02309,0.02558,29936164.32388,0.0
0.0081,323.8916,419044959.21657,294988.86792,1.48266,1.54665,2.20563,51.76354,62.01828,109.88099,160.77048,13297.15114,12739.75337,38089.90385,0.00463,0.00463,0.00463,0.01305,0.02304,0.02552,29941610.28622,0.0
0.0082,323.92156,419119466.34467,295041.3176,1.47645,1.54186,2.20054,51.60402,62.05912,109.89499,160.80022,13268.35348,12714.43879,37977.96372,0.00469,0.00469,0.00469,0.01299,0.02298,0.02546,29946933.97129,0.0
0.0083,323.95083,419192261.12019,295092.56186,1.47024,1.53708,2.19544,51.44447,62.09973,109.90854,160.8293,13239.62144,12689.15344,37866.38135,0.00475,0.00475,0.00475,0.01293,0.02292,0.0254,29952135.3053,0.0
0.0084,323.97941,419263342.53391,295142.59999,1.46403,1.53231,2.19035,51.2849,62.14011,109.92166,160.85773,13210.9548,12663.89735,37755.15518,0.00481,0.00481,0.00481,0.01288,0.02286,0.02535,29957214.21615,0.0
0.0085,324.00729,419332709.60007,295191.43129,1.45781,1.52753,2.18526,51.12529,62.18027,109.93432,160.88549,13182.35334,12638.67054,37644.28366,0.00486,0.00486,0.00486,0.01282,0.02281,0.02529,29962170.63339,0.0
0.0086,324.03449,419400361.35643,295239.0551,1.45159,1.52276,2.18016,50.96567,62.22019,109.94654,160.9126,13153.81685,12613.47302,37533.76528,0.00492,0.00492,0.00492,0.01276,0.02275,0.02523,29967004.48828,0.0
0.0087,324.06099,419466296.86422,295285.47074,1.44536,1.51799,2.17506,50.80601,62.25989,109.95832,160.93905,13125.34513,12588.30481,37423.5985,0.00498,0.00498,0.00498,0.0127,0.02269,0.02517,29971715.71374,0.0
0.0088,324.0868,419530515.20827,295330.67758,1.43913,1.51322,2.16996,50.64633,62.29935,109.96964,160.96484,13096.93795,12563.16593,37313.78182,0.00504,0.00504,0.00504,0.01265,0.02263,0.02512,29976304.24436,0.0
0.0089,324.11192,419593015.49691,295374.67498,1.4329,1.50846,2.16486,50.48663,62.33859,109.98053,160.98998,13068.59512,12538.05639,37204.31372,0.00509,0.00509,0.00509,0.01259,0.02258,0.02506,29980770.01646,0.0
0.009,324.13634,419653796.86212,295417.46233,1.42666,1.50369,2.15976,50.3269,62.37759,109.99097,161.01445,13040.31642,12512.97622,37095.19272,0.00515,0.00515,0.00515,0.01253,0.02252,0.025,29985112.968,0.0
0.0091,324.16008,419712858.45944,295459.03905,1.42042,1.49894,2.15465,50.16715,62.41637,110.00096,161.03827,13012.10165,12487.92544,36986.41734,0.00521,0.00521,0.00521,0.01247,0.02246,0.02494,29989333.03864,0.0
0.0092,324.18312,419770199.46807,295499.40455,1.41417,1.49418,2.14955,50.00738,62.45492,110.0105,161.06142,12983.9506,12462.90405,36877.98609,0.00527,0.00527,0.00527,0.01242,0.0224,0.02488,29993430.16974,0.0
0.0093,324.20546,419825819.09085,295538.55827,1.40792,1.48943,2.14444,49.84759,62.49323,110.0196,161.08392,12955.86307,12437.91208,36769.89751,0.00532,0.00532,0.00532,0.01236,0.02235,0.02483,29997404.30433,0.0
